time,x_pos,y_pos,velocity,rotation,action
0.00000,13.03204,5.97746,0.00000,3.14159,0
0.12500,13.03815,5.99185,0.25001,-3.13692,0
0.17678,13.04418,6.00626,0.35356,-3.13225,0
0.21651,13.05012,6.02071,0.43302,-3.12758,0
0.25001,13.05599,6.03520,0.50001,-3.12291,0
0.27951,13.06176,6.04972,0.55903,-3.11824,0
0.30619,13.06745,6.06427,0.61239,-3.11357,0
0.33073,13.07304,6.07886,0.66145,-3.10891,0
0.35356,13.07855,6.09348,0.70712,-3.10424,0
0.37501,13.08395,6.10814,0.75002,-3.09957,0
0.39529,13.08926,6.12284,0.79059,-3.09490,0
0.41459,13.09447,6.13757,0.82917,-3.09023,0
0.43302,13.09958,6.15234,0.86604,-3.08556,0
0.45070,13.10458,6.16714,0.90141,-3.08089,0
0.46772,13.10947,6.18198,0.93543,-3.07622,0
0.48413,13.11426,6.19686,0.96827,-3.07155,0
0.50001,13.11893,6.21177,1.00002,-3.06688,0
0.51540,13.12348,6.22672,1.03080,-3.06221,0
0.53034,13.12792,6.24170,1.06068,-3.05754,0
0.54487,13.13223,6.25672,1.08975,-3.05287,0
0.55903,13.13642,6.27177,1.11806,-3.04820,0
0.57283,13.14048,6.28686,1.14567,-3.04353,0
0.58631,13.14441,6.30198,1.17263,-3.03886,0
0.59949,13.14820,6.31714,1.19898,-3.03419,0
0.61239,13.15186,6.33233,1.22477,-3.02952,0
0.62501,13.15537,6.34756,1.25003,-3.02485,0
0.63739,13.15873,6.36282,1.27478,-3.02018,0
0.64953,13.16195,6.37811,1.29907,-3.01551,0
0.66145,13.16501,6.39343,1.32290,-3.01084,0
0.67316,13.16792,6.40879,1.34632,-3.00617,0
0.68467,13.17065,6.42417,1.36934,-3.00150,0
0.69599,13.17323,6.43958,1.39197,-2.99683,0
0.70712,13.17563,6.45502,1.41424,-2.99216,0
0.71809,13.17786,6.47049,1.43617,-2.98749,0
0.72888,13.17990,6.48598,1.45777,-2.98282,0
0.73953,13.18176,6.50150,1.47905,-2.97816,0
0.75002,13.18343,6.51703,1.50003,-2.97349,0
0.76036,13.18490,6.53259,1.52072,-2.96882,0
0.77057,13.18617,6.54816,1.54114,-2.96415,0
0.78064,13.18723,6.56375,1.56128,-2.95948,0
0.79059,13.18808,6.57935,1.58117,-2.95481,0
0.80041,13.18871,6.59497,1.60081,-2.95014,0
0.81011,13.18913,6.61059,1.62022,-2.94547,0
0.81970,13.18931,6.62621,1.63939,-2.94080,0
0.82917,13.18926,6.64184,1.65835,-2.93613,0
0.83854,13.18897,6.65746,1.67709,-2.93146,0
0.84781,13.18843,6.67308,1.69562,-2.92679,0
0.85697,13.18764,6.68868,1.71395,-2.92212,0
0.86604,13.18660,6.70427,1.73209,-2.91745,0
0.87502,13.18529,6.71984,1.75004,-2.91278,0
0.88390,13.18371,6.73539,1.76780,-2.90811,0
0.89270,13.18186,6.75090,1.78539,-2.90344,0
0.90141,13.17974,6.76638,1.80281,-2.89877,0
0.91003,13.17732,6.78182,1.82006,-2.89410,0
0.91858,13.17462,6.79721,1.83715,-2.88943,0
0.92704,13.17163,6.81255,1.85409,-2.88476,0
0.93543,13.16834,6.82782,1.87087,-2.88009,0
0.94375,13.16475,6.84303,1.88750,-2.87542,0
0.95199,13.16085,6.85816,1.90398,-2.87075,0
0.96016,13.15665,6.87321,1.92032,-2.86608,0
0.96826,13.15214,6.88817,1.93653,-2.86142,0
0.97630,13.14731,6.90303,1.95260,-2.85675,0
0.98427,13.14217,6.91779,1.96854,-2.85208,0
0.99218,13.13671,6.93243,1.98435,-2.84741,0
1.00002,13.13094,6.94695,2.00000,-2.84274,0
1.00783,13.12485,6.96134,2.00000,-2.83805,0
1.01564,13.11845,6.97559,2.00000,-2.83332,0
1.02346,13.11173,6.98970,2.00000,-2.82856,0
1.03127,13.10470,7.00366,2.00000,-2.82377,0
1.03908,13.09736,7.01745,2.00000,-2.81893,0
1.04690,13.08972,7.03108,2.00000,-2.81406,0
1.05471,13.08177,7.04453,2.00000,-2.80916,0
1.06252,13.07353,7.05781,2.00000,-2.80421,0
1.07033,13.06499,7.07089,2.00000,-2.79923,0
1.07815,13.05616,7.08379,2.00000,-2.79422,0
1.08596,13.04705,7.09648,2.00000,-2.78916,0
1.09377,13.03767,7.10898,2.00000,-2.78407,0
1.10158,13.02802,7.12126,2.00000,-2.77895,0
1.10940,13.01811,7.13334,2.00000,-2.77379,0
1.11721,13.00794,7.14521,2.00000,-2.76859,0
1.12502,12.99752,7.15685,2.00000,-2.76335,0
1.13283,12.98686,7.16828,2.00000,-2.75808,0
1.14065,12.97598,7.17949,2.00000,-2.75277,0
1.14846,12.96487,7.19048,2.00000,-2.74743,0
1.15627,12.95354,7.20124,2.00000,-2.74205,0
1.16409,12.94201,7.21178,2.00000,-2.73663,0
1.17190,12.93027,7.22210,2.00000,-2.73118,0
1.17971,12.91834,7.23219,2.00000,-2.72569,0
1.18752,12.90623,7.24207,2.00000,-2.72016,0
1.19534,12.89395,7.25172,2.00000,-2.71460,0
1.20315,12.88149,7.26115,2.00000,-2.70900,0
1.21096,12.86887,7.27037,2.00000,-2.70336,0
1.21877,12.85610,7.27937,2.00000,-2.69769,0
1.22659,12.84318,7.28816,2.00000,-2.69198,0
1.23440,12.83011,7.29673,2.00000,-2.68623,0
1.24221,12.81692,7.30510,2.00000,-2.68045,0
1.25003,12.80359,7.31326,2.00000,-2.67463,0
1.25784,12.79015,7.32122,2.00000,-2.66877,0
1.26565,12.77658,7.32898,2.00000,-2.66288,0
1.27346,12.76291,7.33654,2.00000,-2.65695,0
1.28128,12.74913,7.34391,2.00000,-2.65099,0
1.28909,12.73525,7.35108,2.00000,-2.64499,0
1.29690,12.72127,7.35807,2.00000,-2.63895,0
1.30472,12.70721,7.36488,2.00000,-2.63288,0
1.31253,12.69306,7.37150,2.00000,-2.62676,0
1.32034,12.67882,7.37795,2.00000,-2.62062,0
1.32815,12.66451,7.38423,2.00000,-2.61443,0
1.33597,12.65013,7.39033,2.00000,-2.60821,0
1.34378,12.63567,7.39626,2.00000,-2.60196,0
1.35159,12.62115,7.40203,2.00000,-2.59566,0
1.35941,12.60657,7.40764,2.00000,-2.58933,0
1.36722,12.59192,7.41309,2.00000,-2.58297,0
1.37503,12.57722,7.41838,2.00000,-2.57657,0
1.38284,12.56247,7.42353,2.00000,-2.57013,0
1.39066,12.54766,7.42852,2.00000,-2.56365,0
1.39847,12.53280,7.43337,2.00000,-2.55714,0
1.40628,12.51790,7.43807,2.00000,-2.55059,0
1.41409,12.50296,7.44263,2.00000,-2.54400,0
1.42191,12.48797,7.44706,2.00000,-2.53738,0
1.42972,12.47295,7.45135,2.00000,-2.53072,0
1.43753,12.45789,7.45550,2.00000,-2.52403,0
1.44535,12.44279,7.45953,2.00000,-2.51730,0
1.45316,12.42766,7.46343,2.00000,-2.51053,0
1.46097,12.41249,7.46721,2.00000,-2.50373,0
1.46878,12.39730,7.47086,2.00000,-2.49689,0
1.47660,12.38208,7.47439,2.00000,-2.49001,0
1.48441,12.36683,7.47780,2.00000,-2.48310,0
1.49222,12.35156,7.48110,2.00000,-2.47615,0
1.50004,12.33626,7.48429,2.00000,-2.46916,0
1.50785,12.32094,7.48736,2.00000,-2.46214,0
1.51566,12.30560,7.49033,2.00000,-2.45508,0
1.52347,12.29024,7.49318,2.00000,-2.44798,0
1.53129,12.27485,7.49593,2.00000,-2.44085,0
1.53910,12.25945,7.49858,2.00000,-2.43368,0
1.54691,12.24404,7.50113,2.00000,-2.42648,0
1.55473,12.22860,7.50358,2.00000,-2.41923,0
1.56254,12.21316,7.50593,2.00000,-2.41196,0
1.57035,12.19769,7.50818,2.00000,-2.40464,0
1.57816,12.18222,7.51034,2.00000,-2.39729,0
1.58598,12.16673,7.51240,2.00000,-2.38990,0
1.59379,12.15123,7.51437,2.00000,-2.38248,0
1.60160,12.13572,7.51626,2.00000,-2.37502,0
1.60942,12.12020,7.51805,2.00000,-2.36752,0
1.61723,12.10466,7.51976,2.00000,-2.35999,0
1.62504,12.08912,7.52138,2.00000,-2.35243,0
1.63285,12.07357,7.52292,2.00000,-2.34489,0
1.64067,12.05801,7.52438,2.00000,-2.33739,0
1.64848,12.04245,7.52575,2.00000,-2.32993,0
1.65629,12.02688,7.52705,2.00000,-2.32251,0
1.66411,12.01130,7.52826,2.00000,-2.31512,0
1.67192,11.99571,7.52940,2.00000,-2.30777,0
1.67973,11.98012,7.53046,2.00000,-2.30046,0
1.68754,11.96453,7.53145,2.00000,-2.29318,0
1.69536,11.94893,7.53236,2.00000,-2.28594,0
1.70317,11.93333,7.53319,2.00000,-2.27873,0
1.71098,11.91772,7.53396,2.00000,-2.27156,0
1.71880,11.90211,7.53465,2.00000,-2.26443,0
1.72661,11.88650,7.53528,2.00000,-2.25733,0
1.73442,11.87088,7.53583,2.00000,-2.25027,0
1.74223,11.85526,7.53632,2.00000,-2.24325,0
1.75005,11.83964,7.53674,2.00000,-2.23626,0
1.75786,11.82402,7.53709,2.00000,-2.22931,0
1.76567,11.80840,7.53738,2.00000,-2.22240,0
1.77349,11.79277,7.53761,2.00000,-2.21552,0
1.78130,11.77715,7.53776,2.00000,-2.20868,0
1.78911,11.76152,7.53786,2.00000,-2.20188,0
1.79692,11.74590,7.53789,2.00000,-2.19511,0
1.80474,11.73027,7.53787,2.00000,-2.18838,0
1.81255,11.71465,7.53778,2.00000,-2.18168,0
1.82036,11.69902,7.53763,2.00000,-2.17503,0
1.82818,11.68340,7.53742,2.00000,-2.16840,0
1.83599,11.66777,7.53716,2.00000,-2.16182,0
1.84380,11.65215,7.53684,2.00000,-2.15527,0
1.85161,11.63653,7.53645,2.00000,-2.14876,0
1.85943,11.62091,7.53602,2.00000,-2.14228,0
1.86724,11.60529,7.53552,2.00000,-2.13584,0
1.87505,11.58968,7.53498,2.00000,-2.12944,0
1.88287,11.57406,7.53437,2.00000,-2.12307,0
1.89068,11.55845,7.53372,2.00000,-2.11674,0
1.89849,11.54284,7.53300,2.00000,-2.11045,0
1.90630,11.52723,7.53224,2.00000,-2.10419,0
1.91412,11.51163,7.53143,2.00000,-2.09797,0
1.92193,11.49603,7.53056,2.00000,-2.09179,0
1.92974,11.48043,7.52964,2.00000,-2.08564,0
1.93756,11.46483,7.52867,2.00000,-2.07953,0
1.94537,11.44924,7.52765,2.00000,-2.07346,0
1.95318,11.43365,7.52658,2.00000,-2.06742,0
1.96099,11.41807,7.52546,2.00000,-2.06142,0
1.96881,11.40249,7.52429,2.00000,-2.05545,0
1.97662,11.38691,7.52307,2.00000,-2.04952,0
1.98443,11.37133,7.52180,2.00000,-2.04363,0
1.99225,11.35576,7.52049,2.00000,-2.03778,0
2.00006,11.34020,7.51913,2.00000,-2.03196,0
2.00787,11.32463,7.51772,2.00000,-2.02618,0
2.01568,11.30908,7.51627,2.00000,-2.02043,0
2.02350,11.29352,7.51476,2.00000,-2.01472,0
2.03131,11.27797,7.51322,2.00000,-2.00905,0
2.03912,11.26243,7.51163,2.00000,-2.00341,0
2.04694,11.24689,7.50999,2.00000,-1.99781,0
2.05475,11.23136,7.50831,2.00000,-1.99225,0
2.06256,11.21583,7.50658,2.00000,-1.98672,0
2.07037,11.20030,7.50481,2.00000,-1.98123,0
2.07819,11.18478,7.50300,2.00000,-1.97577,0
2.08600,11.16927,7.50114,2.00000,-1.97036,0
2.09381,11.15376,7.49924,2.00000,-1.96498,0
2.10163,11.13825,7.49729,2.00000,-1.95963,0
2.10944,11.12275,7.49531,2.00000,-1.95432,0
2.11725,11.10726,7.49328,2.00000,-1.94905,0
2.12506,11.09177,7.49120,2.00000,-1.94381,0
2.13288,11.07629,7.48909,2.00000,-1.93862,0
2.14069,11.06081,7.48694,2.00000,-1.93345,0
2.14850,11.04534,7.48474,2.00000,-1.92833,0
2.15632,11.02988,7.48250,2.00000,-1.92324,0
2.16413,11.01442,7.48022,2.00000,-1.91819,0
2.17194,10.99897,7.47790,2.00000,-1.91317,0
2.17975,10.98352,7.47554,2.00000,-1.90819,0
2.18757,10.96808,7.47314,2.00000,-1.90325,0
2.19538,10.95265,7.47070,2.00000,-1.89834,0
2.20319,10.93722,7.46822,2.00000,-1.89347,0
2.21101,10.92180,7.46570,2.00000,-1.88863,0
2.21882,10.90638,7.46313,2.00000,-1.88384,0
2.22663,10.89098,7.46053,2.00000,-1.87908,0
2.23444,10.87557,7.45789,2.00000,-1.87435,0
2.24226,10.86018,7.45521,2.00000,-1.86966,0
2.25007,10.84479,7.45250,2.00000,-1.86501,0
2.25788,10.82941,7.44974,2.00000,-1.86040,0
2.26570,10.81404,7.44694,2.00000,-1.85582,0
2.27351,10.79867,7.44411,2.00000,-1.85128,0
2.28132,10.78331,7.44123,2.00000,-1.84677,0
2.28913,10.76796,7.43832,2.00000,-1.84230,0
2.29695,10.75262,7.43537,2.00000,-1.83787,0
2.30476,10.73728,7.43238,2.00000,-1.83347,0
2.31257,10.72195,7.42935,2.00000,-1.82911,0
2.32039,10.70663,7.42629,2.00000,-1.82479,0
2.32820,10.69131,7.42318,2.00000,-1.82050,0
2.33601,10.67601,7.42004,2.00000,-1.81625,0
2.34382,10.66071,7.41686,2.00000,-1.81204,0
2.35164,10.64542,7.41364,2.00000,-1.80786,0
2.35945,10.63014,7.41039,2.00000,-1.80372,0
2.36726,10.61486,7.40709,2.00000,-1.79962,0
2.37508,10.59959,7.40376,2.00000,-1.79555,0
2.38289,10.58434,7.40039,2.00000,-1.79152,0
2.39070,10.56909,7.39698,2.00000,-1.78752,0
2.39851,10.55385,7.39353,2.00000,-1.78356,0
2.40633,10.53861,7.39005,2.00000,-1.77964,0
2.41414,10.52339,7.38653,2.00000,-1.77576,0
2.42195,10.50818,7.38297,2.00000,-1.77191,0
2.42977,10.49297,7.37937,2.00000,-1.76809,0
2.43758,10.47777,7.37573,2.00000,-1.76432,0
2.44539,10.46259,7.37206,2.00000,-1.76058,0
2.45320,10.44741,7.36835,2.00000,-1.75688,0
2.46102,10.43224,7.36460,2.00000,-1.75321,0
2.46883,10.41708,7.36081,2.00000,-1.74958,0
2.47664,10.40193,7.35698,2.00000,-1.74599,0
2.48446,10.38679,7.35312,2.00000,-1.74243,0
2.49227,10.37166,7.34921,2.00000,-1.73891,0
2.50008,10.35654,7.34527,2.00000,-1.73542,0
2.50789,10.34143,7.34129,2.00000,-1.73198,0
2.51571,10.32633,7.33727,2.00000,-1.72857,0
2.52352,10.31124,7.33321,2.00000,-1.72519,0
2.53133,10.29616,7.32912,2.00000,-1.72185,0
2.53915,10.28109,7.32498,2.00000,-1.71855,0
2.54696,10.26603,7.32080,2.00000,-1.71529,0
2.55477,10.25099,7.31659,2.00000,-1.71206,0
2.56258,10.23595,7.31233,2.00000,-1.70886,0
2.57040,10.22093,7.30804,2.00000,-1.70571,0
2.57821,10.20592,7.30370,2.00000,-1.70259,0
2.58602,10.19092,7.29932,2.00000,-1.69951,0
2.59384,10.17593,7.29491,2.00000,-1.69646,0
2.60165,10.16095,7.29045,2.00000,-1.69345,0
2.60946,10.14599,7.28595,2.00000,-1.69048,0
2.61727,10.13104,7.28141,2.00000,-1.68754,0
2.62509,10.11610,7.27683,2.00000,-1.68464,0
2.63290,10.10117,7.27221,2.00000,-1.68178,0
2.64071,10.08626,7.26754,2.00000,-1.67895,0
2.64853,10.07136,7.26284,2.00000,-1.67616,0
2.65634,10.05647,7.25808,2.00000,-1.67340,0
2.66415,10.04160,7.25329,2.00000,-1.67068,0
2.67196,10.02674,7.24845,2.00000,-1.66800,0
2.67978,10.01190,7.24357,2.00000,-1.66536,0
2.68759,9.99707,7.23865,2.00000,-1.66275,0
2.69540,9.98225,7.23368,2.00000,-1.66018,0
2.70322,9.96745,7.22866,2.00000,-1.65764,0
2.71103,9.95267,7.22360,2.00000,-1.65514,0
2.71884,9.93790,7.21849,2.00000,-1.65268,0
2.72665,9.92315,7.21334,2.00000,-1.65025,0
2.73447,9.90842,7.20814,2.00000,-1.64786,0
2.74228,9.89370,7.20289,2.00000,-1.64551,0
2.75009,9.87900,7.19759,2.00000,-1.64320,0
2.75791,9.86432,7.19225,2.00000,-1.64091,0
2.76572,9.84965,7.18686,2.00000,-1.63867,0
2.77353,9.83500,7.18141,2.00000,-1.63646,0
2.78134,9.82038,7.17591,2.00000,-1.63429,0
2.78916,9.80577,7.17037,2.00000,-1.63216,0
2.79697,9.79118,7.16477,2.00000,-1.63006,0
2.80478,9.77661,7.15911,2.00000,-1.62800,0
2.81260,9.76207,7.15341,2.00000,-1.62598,0
2.82041,9.74754,7.14765,2.00000,-1.62399,0
2.82822,9.73304,7.14183,2.00000,-1.62204,0
2.83603,9.71856,7.13596,2.00000,-1.62012,0
2.84385,9.70410,7.13003,2.00000,-1.61824,0
2.85166,9.68967,7.12404,2.00000,-1.61640,0
2.85947,9.67526,7.11799,2.00000,-1.61459,0
2.86729,9.66088,7.11188,2.00000,-1.61282,0
2.87510,9.64653,7.10571,2.00000,-1.61109,0
2.88291,9.63220,7.09947,2.00000,-1.60939,0
2.89072,9.61790,7.09317,2.00000,-1.60773,0
2.89854,9.60363,7.08681,2.00000,-1.60611,0
2.90635,9.58939,7.08037,2.00000,-1.60452,0
2.91416,9.57518,7.07387,2.00000,-1.60297,0
2.92198,9.56101,7.06730,2.00000,-1.60146,0
2.92979,9.54686,7.06065,2.00000,-1.59998,0
2.93760,9.53276,7.05393,2.00000,-1.59854,0
2.94541,9.51868,7.04714,2.00000,-1.59714,0
2.95323,9.50465,7.04027,2.00000,-1.59577,0
2.96104,9.49066,7.03331,2.00000,-1.59444,0
2.96885,9.47671,7.02628,2.00000,-1.59314,0
2.97667,9.46280,7.01916,2.00000,-1.59188,0
2.98448,9.44893,7.01195,2.00000,-1.59066,0
2.99229,9.43512,7.00465,2.00000,-1.58947,0
3.00010,9.42135,6.99726,2.00000,-1.58833,0
3.00792,9.40764,6.98977,2.00000,-1.58721,0
3.01573,9.39398,6.98218,2.00000,-1.58614,0
3.02354,9.38037,6.97449,2.00000,-1.58510,0
3.03136,9.36683,6.96669,2.00000,-1.58409,0
3.03917,9.35336,6.95878,2.00000,-1.58313,0
3.04698,9.33995,6.95076,2.00000,-1.58220,0
3.05479,9.32662,6.94261,2.00000,-1.58130,0
3.06261,9.31336,6.93434,2.00000,-1.58045,0
3.07042,9.30018,6.92594,2.00000,-1.57962,0
3.07823,9.28710,6.91740,2.00000,-1.57884,0
3.08605,9.27410,6.90872,2.00000,-1.57809,0
3.09386,9.26121,6.89989,2.00000,-1.57738,0
3.10167,9.24843,6.89090,2.00000,-1.57671,0
3.10948,9.23577,6.88174,2.00000,-1.57607,0
3.11730,9.22324,6.87241,2.00000,-1.57547,0
3.12511,9.21084,6.86290,2.00000,-1.57490,0
3.13292,9.19860,6.85318,2.00000,-1.57437,0
3.14073,9.18653,6.84326,2.00000,-1.57388,0
3.14855,9.17464,6.83312,2.00000,-1.57342,0
3.15636,9.16296,6.82274,2.00000,-1.57300,0
3.16417,9.15151,6.81212,2.00000,-1.57262,0
3.17199,9.14031,6.80122,2.00000,-1.57227,0
3.17980,9.12940,6.79004,2.00000,-1.57196,0
3.18761,9.11881,6.77854,2.00000,-1.57169,0
3.19542,9.10860,6.76672,2.00000,-1.57145,0
3.20324,9.09881,6.75454,2.00000,-1.57125,0
3.21105,9.08951,6.74199,2.00000,-1.57109,0
3.21886,9.08077,6.72903,2.00000,-1.57096,0
3.22667,9.07271,6.71565,2.00000,-1.57087,0
3.23448,9.06542,6.70183,2.00000,-1.57081,0
3.24229,9.05905,6.68757,2.00000,-1.57080,0
3.25013,9.05316,6.67304,2.00000,-1.57080,0
3.25797,9.04727,6.65852,2.00000,-1.57080,0
3.26581,9.04136,6.64400,2.00000,-1.57080,0
3.27364,9.03544,6.62949,2.00000,-1.57080,0
3.28148,9.02951,6.61498,2.00000,-1.57080,0
3.28932,9.02357,6.60047,2.00000,-1.57080,0
3.29715,9.01762,6.58597,2.00000,-1.57080,0
3.30499,9.01166,6.57147,2.00000,-1.57080,0
3.31283,9.00569,6.55698,2.00000,-1.57080,0
3.32067,8.99972,6.54249,2.00000,-1.57080,0
3.32850,8.99373,6.52800,2.00000,-1.57080,0
3.33634,8.98774,6.51352,2.00000,-1.57080,0
3.34418,8.98175,6.49904,2.00000,-1.57080,0
3.35201,8.97575,6.48456,2.00000,-1.57080,0
3.35985,8.96974,6.47008,2.00000,-1.57080,0
3.36769,8.96373,6.45560,2.00000,-1.57080,0
3.37553,8.95772,6.44113,2.00000,-1.57080,0
3.38336,8.95170,6.42665,2.00000,-1.57080,0
3.39120,8.94568,6.41218,2.00000,-1.57080,0
3.39904,8.93967,6.39771,2.00000,-1.57080,0
3.40687,8.93365,6.38323,2.00000,-1.57080,0
3.41471,8.92763,6.36876,2.00000,-1.57080,0
3.42255,8.92161,6.35429,2.00000,-1.57080,0
3.43038,8.91560,6.33981,2.00000,-1.57080,0
3.43822,8.90959,6.32534,2.00000,-1.57080,0
3.44606,8.90358,6.31086,2.00000,-1.57080,0
3.45390,8.89758,6.29638,2.00000,-1.57080,0
3.46173,8.89159,6.28190,2.00000,-1.57080,0
3.46957,8.88560,6.26741,2.00000,-1.57080,0
3.47741,8.87963,6.25292,2.00000,-1.57080,0
3.48524,8.87366,6.23843,2.00000,-1.57080,0
3.49308,8.86770,6.22393,2.00000,-1.57080,0
3.50092,8.86176,6.20942,2.00000,-1.57080,0
3.50876,8.85583,6.19492,2.00000,-1.57080,0
3.51659,8.84991,6.18040,2.00000,-1.57080,0
3.52443,8.84401,6.16588,2.00000,-1.57080,0
3.53227,8.83813,6.15135,2.00000,-1.57080,0
3.54010,8.83227,6.13681,2.00000,-1.57080,0
3.54794,8.82643,6.12227,2.00000,-1.57080,0
3.55578,8.82061,6.10772,2.00000,-1.57080,0
3.56362,8.81481,6.09315,2.00000,-1.57080,0
3.57145,8.80904,6.07858,2.00000,-1.57080,0
3.57929,8.80329,6.06400,2.00000,-1.57080,0
3.58713,8.79758,6.04940,2.00000,-1.57080,0
3.59496,8.79189,6.03480,2.00000,-1.57080,0
3.60280,8.78624,6.02018,2.00000,-1.57080,0
3.61064,8.78062,6.00555,2.00000,-1.57080,0
3.61847,8.77503,5.99090,2.00000,-1.57080,0
3.62631,8.76948,5.97624,2.00000,-1.57080,0
3.63415,8.76398,5.96157,2.00000,-1.57080,0
3.64199,8.75851,5.94688,2.00000,-1.57080,0
3.64982,8.75309,5.93217,2.00000,-1.57080,0
3.65766,8.74771,5.91745,2.00000,-1.57080,0
3.66550,8.74238,5.90271,2.00000,-1.57080,0
3.67333,8.73710,5.88795,2.00000,-1.57080,0
3.68117,8.73188,5.87317,2.00000,-1.57080,0
3.68901,8.72671,5.85837,2.00000,-1.57080,0
3.69685,8.72159,5.84356,2.00000,-1.57080,0
3.70468,8.71653,5.82872,2.00000,-1.57080,0
3.71252,8.71154,5.81386,2.00000,-1.57080,0
3.72036,8.70661,5.79899,2.00000,-1.57080,0
3.72819,8.70174,5.78409,2.00000,-1.57080,0
3.73603,8.69695,5.76916,2.00000,-1.57080,0
3.74387,8.69222,5.75422,2.00000,-1.57080,0
3.75170,8.68757,5.73925,2.00000,-1.57080,0
3.75954,8.68300,5.72426,2.00000,-1.57080,0
3.76738,8.67851,5.70924,2.00000,-1.57080,0
3.77522,8.67409,5.69420,2.00000,-1.57080,0
3.78305,8.66977,5.67914,2.00000,-1.57080,0
3.79089,8.66553,5.66405,2.00000,-1.57080,0
3.79873,8.66137,5.64893,2.00000,-1.57080,0
3.80656,8.65731,5.63379,2.00000,-1.57080,0
3.81440,8.65335,5.61863,2.00000,-1.57080,0
3.82224,8.64948,5.60344,2.00000,-1.57080,0
3.83008,8.64571,5.58822,2.00000,-1.57080,0
3.83791,8.64205,5.57298,2.00000,-1.57080,0
3.84575,8.63849,5.55772,2.00000,-1.57080,0
3.85359,8.63504,5.54243,2.00000,-1.57080,0
3.86142,8.63169,5.52712,2.00000,-1.57080,0
3.86926,8.62846,5.51178,2.00000,-1.57080,0
3.87710,8.62535,5.49642,2.00000,-1.57080,0
3.88493,8.62235,5.48103,2.00000,-1.57080,0
3.89277,8.61946,5.46563,2.00000,-1.57080,0
3.90061,8.61670,5.45020,2.00000,-1.57080,0
3.90845,8.61407,5.43475,2.00000,-1.57080,0
3.91628,8.61155,5.41928,2.00000,-1.57080,0
3.92412,8.60917,5.40379,2.00000,-1.57080,0
3.93196,8.60691,5.38827,2.00000,-1.57080,0
3.93979,8.60478,5.37275,2.00000,-1.57080,0
3.94763,8.60279,5.35720,2.00000,-1.57080,0
3.95547,8.60092,5.34164,2.00000,-1.57080,0
3.96331,8.59919,5.32606,2.00000,-1.57080,0
3.97114,8.59760,5.31047,2.00000,-1.57080,0
3.97898,8.59614,5.29486,2.00000,-1.57080,0
3.98682,8.59481,5.27924,2.00000,-1.57080,0
3.99465,8.59363,5.26361,2.00000,-1.57080,0
4.00249,8.59258,5.24797,2.00000,-1.57080,0
4.01033,8.59167,5.23233,2.00000,-1.57080,0
4.01816,8.59090,5.21667,2.00000,-1.57080,0
4.02600,8.59027,5.20101,2.00000,-1.57080,0
4.03384,8.58977,5.18534,2.00000,-1.57080,0
4.04168,8.58942,5.16967,2.00000,-1.57080,0
4.04951,8.58920,5.15400,2.00000,-1.57080,0
4.05736,8.58912,5.13833,1.99724,-1.57080,0
4.06523,8.58918,5.12265,1.98149,-1.57080,0
