time,x_pos,y_pos,velocity,rotation,action
0.00000,3.61107,4.04098,0.00000,-1.57080,0
0.12506,3.60719,4.05613,0.25012,-1.58580,0
0.17686,3.60315,4.07124,0.35373,-1.60080,0
0.21661,3.59895,4.08631,0.43323,-1.61580,0
0.25012,3.59459,4.10133,0.50025,-1.63080,0
0.27965,3.59009,4.11631,0.55929,-1.64580,0
0.30634,3.58544,4.13124,0.61268,-1.66080,0
0.33088,3.58065,4.14613,0.66177,-1.67580,0
0.35373,3.57573,4.16098,0.70746,-1.69080,0
0.37519,3.57067,4.17578,0.75037,-1.70580,0
0.39548,3.56549,4.19053,0.79096,-1.72080,0
0.41478,3.56018,4.20525,0.82957,-1.73580,0
0.43323,3.55476,4.21992,0.86646,-1.75080,0
0.45092,3.54922,4.23454,0.90184,-1.76580,0
0.46794,3.54356,4.24913,0.93588,-1.78080,0
0.48436,3.53780,4.26367,0.96873,-1.79580,0
0.50025,3.53193,4.27816,1.00050,-1.81081,0
0.51564,3.52596,4.29262,1.03129,-1.82581,0
0.53059,3.51989,4.30704,1.06119,-1.84081,0
0.54513,3.51372,4.32141,1.09027,-1.85581,0
0.55930,3.50746,4.33574,1.11859,-1.87081,0
0.57311,3.50111,4.35003,1.14621,-1.88581,0
0.58659,3.49466,4.36428,1.17319,-1.90081,0
0.59978,3.48814,4.37850,1.19955,-1.91581,0
0.61268,3.48152,4.39267,1.22535,-1.93081,0
0.62531,3.47483,4.40681,1.25062,-1.94581,0
0.63769,3.46805,4.42090,1.27539,-1.96081,0
0.64984,3.46120,4.43496,1.29968,-1.97565,0
0.66177,3.45427,4.44898,1.32353,-1.98997,0
0.67348,3.44726,4.46297,1.34696,-2.00376,0
0.68499,3.44018,4.47692,1.36999,-2.01706,0
0.69632,3.43304,4.49083,1.39263,-2.02989,0
0.70746,3.42582,4.50470,1.41492,-2.04228,0
0.71843,3.41854,4.51855,1.43686,-2.05424,0
0.72923,3.41119,4.53235,1.45846,-2.06580,0
0.73988,3.40378,4.54612,1.47976,-2.07697,0
0.75037,3.39630,4.55986,1.50075,-2.08777,0
0.76072,3.38877,4.57357,1.52145,-2.09821,0
0.77094,3.38117,4.58724,1.54187,-2.10831,0
0.78101,3.37352,4.60088,1.56203,-2.11808,0
0.79096,3.36581,4.61449,1.58193,-2.12754,0
0.80079,3.35804,4.62806,1.60158,-2.13669,0
0.81050,3.35022,4.64161,1.62099,-2.14555,0
0.82009,3.34234,4.65512,1.64018,-2.15413,0
0.82957,3.33441,4.66860,1.65914,-2.16244,0
0.83894,3.32644,4.68206,1.67789,-2.17048,0
0.84821,3.31841,4.69548,1.69643,-2.17826,0
0.85738,3.31033,4.70887,1.71477,-2.18580,0
0.86646,3.30220,4.72224,1.73291,-2.19311,0
0.87544,3.29403,4.73557,1.75087,-2.20018,0
0.88432,3.28581,4.74888,1.76865,-2.20703,0
0.89312,3.27754,4.76216,1.78625,-2.21366,0
0.90184,3.26923,4.77541,1.80367,-2.22007,0
0.91047,3.26088,4.78863,1.82093,-2.22629,0
0.91902,3.25249,4.80183,1.83803,-2.23230,0
0.92749,3.24405,4.81500,1.85497,-2.23812,0
0.93592,3.23557,4.82814,1.85560,-2.24378,0
0.94435,3.22705,4.84125,1.85560,-2.24930,0
0.95277,3.21849,4.85435,1.85560,-2.25468,0
0.96120,3.20989,4.86741,1.85560,-2.25993,0
0.96963,3.20125,4.88045,1.85560,-2.26504,0
0.97806,3.19258,4.89347,1.85560,-2.27001,0
0.98649,3.18387,4.90646,1.85560,-2.27485,0
0.99492,3.17512,4.91942,1.85560,-2.27955,0
1.00335,3.16634,4.93236,1.85560,-2.28412,0
1.01178,3.15752,4.94528,1.85560,-2.28855,0
1.02021,3.14867,4.95818,1.85560,-2.29284,0
1.02863,3.13978,4.97105,1.85560,-2.29700,0
1.03706,3.13086,4.98389,1.85560,-2.30102,0
1.04549,3.12191,4.99672,1.85560,-2.30490,0
1.05392,3.11292,5.00952,1.85560,-2.30865,0
1.06235,3.10391,5.02230,1.85560,-2.31226,0
1.07078,3.09486,5.03506,1.85560,-2.31573,0
1.07921,3.08578,5.04779,1.85560,-2.31907,0
1.08764,3.07667,5.06051,1.85560,-2.32227,0
1.09607,3.06753,5.07320,1.85560,-2.32534,0
1.10449,3.05836,5.08587,1.85560,-2.32827,0
1.11292,3.04917,5.09852,1.85560,-2.33106,0
1.12135,3.03994,5.11115,1.85560,-2.33372,0
1.12978,3.03069,5.12376,1.85560,-2.33624,0
1.13821,3.02141,5.13635,1.85560,-2.33863,0
1.14664,3.01210,5.14892,1.85560,-2.34088,0
1.15507,3.00276,5.16147,1.85560,-2.34299,0
1.16350,2.99340,5.17400,1.85560,-2.34497,0
1.17193,2.98401,5.18651,1.85560,-2.34680,0
1.18035,2.97460,5.19900,1.85560,-2.34851,0
1.18878,2.96516,5.21147,1.85560,-2.35008,0
1.19721,2.95570,5.22392,1.85560,-2.35151,0
1.20564,2.94621,5.23636,1.85560,-2.35280,0
1.21407,2.93670,5.24877,1.85560,-2.35396,0
1.22250,2.92716,5.26117,1.85560,-2.35498,0
1.23093,2.91760,5.27355,1.85560,-2.35587,0
1.23936,2.90801,5.28591,1.85560,-2.35662,0
1.24779,2.89841,5.29825,1.85560,-2.35723,0
1.25621,2.88878,5.31058,1.85560,-2.35771,0
1.26464,2.87913,5.32288,1.85560,-2.35805,0
1.27307,2.86945,5.33517,1.85560,-2.35825,0
1.28150,2.85976,5.34745,1.85560,-2.35832,1
1.28989,2.85004,5.35970,1.87238,-2.35832,0
1.29821,2.84030,5.37194,1.88901,-2.35834,0
1.30645,2.83054,5.38416,1.90550,-2.35836,0
1.31463,2.82076,5.39637,1.92184,-2.35839,0
1.32273,2.81096,5.40855,1.93805,-2.35843,0
1.33077,2.80114,5.42073,1.95413,-2.35847,0
1.33874,2.79129,5.43288,1.97007,-2.35853,0
1.34665,2.78143,5.44502,1.98588,-2.35859,0
1.35449,2.77155,5.45715,2.00000,-2.35866,0
1.36231,2.76165,5.46926,2.00000,-2.35873,0
1.37013,2.75173,5.48135,2.00000,-2.35882,0
1.37795,2.74179,5.49342,2.00000,-2.35891,0
1.38577,2.73184,5.50549,2.00000,-2.35901,0
1.39359,2.72186,5.51753,2.00000,-2.35912,0
1.40142,2.71187,5.52956,2.00000,-2.35923,0
1.40924,2.70185,5.54158,2.00000,-2.35935,0
1.41706,2.69182,5.55358,2.00000,-2.35949,0
1.42488,2.68178,5.56557,2.00000,-2.35962,0
1.43270,2.67171,5.57754,2.00000,-2.35977,0
1.44052,2.66163,5.58950,2.00000,-2.35992,0
1.44834,2.65153,5.60144,2.00000,-2.36008,0
1.45616,2.64141,5.61337,2.00000,-2.36025,0
1.46398,2.63128,5.62528,2.00000,-2.36043,0
1.47180,2.62113,5.63718,2.00000,-2.36062,0
1.47962,2.61096,5.64907,2.00000,-2.36081,0
1.48744,2.60078,5.66094,2.00000,-2.36101,0
1.49526,2.59058,5.67280,2.00000,-2.36122,0
1.50308,2.58037,5.68465,2.00000,-2.36143,0
1.51090,2.57014,5.69648,2.00000,-2.36166,0
1.51872,2.55990,5.70829,2.00000,-2.36189,0
1.52654,2.54963,5.72010,2.00000,-2.36213,0
1.53436,2.53936,5.73189,2.00000,-2.36237,0
1.54218,2.52907,5.74367,2.00000,-2.36263,0
1.55000,2.51876,5.75543,2.00000,-2.36289,0
1.55782,2.50844,5.76718,2.00000,-2.36316,0
1.56564,2.49810,5.77892,2.00000,-2.36344,0
1.57346,2.48775,5.79065,2.00000,-2.36372,0
1.58128,2.47739,5.80236,2.00000,-2.36402,0
1.58910,2.46701,5.81406,2.00000,-2.36432,0
1.59692,2.45662,5.82575,2.00000,-2.36463,0
1.60474,2.44621,5.83743,2.00000,-2.36494,0
1.61256,2.43579,5.84909,2.00000,-2.36527,0
1.62038,2.42536,5.86074,2.00000,-2.36560,0
1.62820,2.41491,5.87238,2.00000,-2.36594,0
1.63602,2.40445,5.88401,2.00000,-2.36629,0
1.64384,2.39397,5.89562,2.00000,-2.36664,0
1.65166,2.38348,5.90722,2.00000,-2.36701,0
1.65949,2.37298,5.91882,2.00000,-2.36738,0
1.66731,2.36247,5.93039,2.00000,-2.36776,0
1.67513,2.35194,5.94196,2.00000,-2.36814,0
1.68295,2.34140,5.95352,2.00000,-2.36854,0
1.69077,2.33084,5.96506,2.00000,-2.36894,0
1.69859,2.32028,5.97659,2.00000,-2.36935,0
1.70641,2.30970,5.98811,2.00000,-2.36976,0
1.71423,2.29911,5.99962,2.00000,-2.37019,0
1.72205,2.28851,6.01112,2.00000,-2.37062,0
1.72987,2.27789,6.02261,2.00000,-2.37106,0
1.73769,2.26726,6.03408,2.00000,-2.37151,0
1.74551,2.25663,6.04555,2.00000,-2.37197,0
1.75333,2.24597,6.05700,2.00000,-2.37243,0
1.76115,2.23531,6.06844,2.00000,-2.37290,0
1.76897,2.22464,6.07988,2.00000,-2.37338,0
1.77679,2.21395,6.09130,2.00000,-2.37387,0
1.78461,2.20325,6.10271,2.00000,-2.37436,0
1.79243,2.19254,6.11410,2.00000,-2.37487,0
1.80025,2.18182,6.12549,2.00000,-2.37538,0
1.80807,2.17109,6.13687,2.00000,-2.37590,0
1.81589,2.16035,6.14824,2.00000,-2.37642,0
1.82371,2.14959,6.15959,2.00000,-2.37696,0
1.83153,2.13883,6.17094,2.00000,-2.37750,0
1.83935,2.12805,6.18228,2.00000,-2.37805,0
1.84717,2.11726,6.19360,2.00000,-2.37860,0
1.85499,2.10646,6.20492,2.00000,-2.37917,0
1.86281,2.09565,6.21622,2.00000,-2.37974,0
1.87063,2.08484,6.22751,2.00000,-2.38032,0
1.87845,2.07400,6.23880,2.00000,-2.38091,0
1.88627,2.06316,6.25007,2.00000,-2.38150,0
1.89409,2.05231,6.26134,2.00000,-2.38211,0
1.90191,2.04145,6.27259,2.00000,-2.38272,0
1.90973,2.03058,6.28384,2.00000,-2.38334,0
1.91756,2.01970,6.29507,2.00000,-2.38396,0
1.92538,2.00880,6.30629,2.00000,-2.38460,0
1.93320,1.99790,6.31751,2.00000,-2.38524,0
1.94102,1.98699,6.32871,2.00000,-2.38589,0
1.94884,1.97607,6.33991,2.00000,-2.38655,0
1.95669,1.96514,6.35109,1.98530,-2.38722,0
1.96460,1.95419,6.36227,1.96948,-2.38790,0
1.97257,1.94324,6.37344,1.95354,-2.38859,0
1.98061,1.93228,6.38459,1.93746,-2.38930,0
1.98872,1.92131,6.39574,1.92125,-2.39002,0
1.99689,1.91033,6.40688,1.90489,-2.39076,0
2.00514,1.89934,6.41800,1.88840,-2.39151,0
2.01346,1.88833,6.42912,1.87176,-2.39228,0
2.02185,1.87733,6.44023,1.85498,-2.39306,0
2.03032,1.86631,6.45133,1.83803,-2.39386,0
2.03887,1.85528,6.46242,1.82094,-2.39468,0
2.04750,1.84424,6.47350,1.80368,-2.39551,0
2.05621,1.83319,6.48457,1.78625,-2.39636,0
2.06501,1.82214,6.49564,1.76865,-2.39723,0
2.07390,1.81107,6.50669,1.75087,-2.39812,0
2.08288,1.80000,6.51774,1.73292,-2.39903,0
2.09195,1.78891,6.52877,1.71477,-2.39996,0
2.10112,1.77782,6.53980,1.69643,-2.40090,0
2.11039,1.76672,6.55081,1.67789,-2.40187,0
2.11977,1.75561,6.56182,1.65914,-2.40286,0
2.12925,1.74449,6.57282,1.64018,-2.40385,0
2.13884,1.73336,6.58381,1.62099,-2.40484,0
2.14855,1.72222,6.59479,1.60158,-2.40583,0
2.15837,1.71107,6.60577,1.58193,-2.40683,0
2.16832,1.69992,6.61673,1.56203,-2.40782,0
2.17840,1.68876,6.62768,1.54187,-2.40881,0
2.18861,1.67758,6.63863,1.52145,-2.40980,0
2.19896,1.66640,6.64957,1.50075,-2.41079,0
2.20946,1.65521,6.66049,1.47976,-2.41178,0
2.22010,1.64402,6.67141,1.45847,-2.41277,0
2.23091,1.63281,6.68233,1.43686,-2.41377,0
2.24188,1.62159,6.69323,1.41492,-2.41476,0
2.25302,1.61037,6.70412,1.39264,-2.41575,0
2.26434,1.59914,6.71500,1.36999,-2.41674,0
2.27586,1.58790,6.72588,1.34696,-2.41773,0
2.28757,1.57665,6.73675,1.32354,-2.41872,0
2.29949,1.56539,6.74761,1.29969,-2.41971,0
2.31164,1.55413,6.75846,1.27539,-2.42071,0
2.32403,1.54285,6.76930,1.25062,-2.42170,0
2.33666,1.53157,6.78013,1.22536,-2.42269,0
2.34956,1.52028,6.79096,1.19956,-2.42368,0
2.36274,1.50898,6.80177,1.17319,-2.42467,0
2.37623,1.49768,6.81258,1.14622,-2.42566,0
2.39004,1.48636,6.82338,1.11859,-2.42665,0
2.40420,1.47504,6.83417,1.09027,-2.42765,0
2.41874,1.46371,6.84495,1.06119,-2.42864,0
2.43369,1.45237,6.85572,1.03129,-2.42963,0
2.44909,1.44102,6.86649,1.00050,-2.43062,0
2.46497,1.42967,6.87724,0.96873,-2.43161,0
2.48140,1.41831,6.88799,0.93588,-2.43260,0
2.49842,1.40694,6.89873,0.90184,-2.43359,0
2.51611,1.39556,6.90946,0.86646,-2.43459,0
2.53455,1.38417,6.92018,0.82957,-2.43558,0
2.55386,1.37277,6.93089,0.79096,-2.43657,0
2.57415,1.36137,6.94160,0.75037,-2.43756,0
2.59561,1.34996,6.95230,0.70746,-2.43855,0
2.61845,1.33854,6.96298,0.66177,-2.43954,0
2.64300,1.32711,6.97366,0.61268,-2.44053,0
2.66969,1.31568,6.98434,0.55930,-2.44152,0
2.69921,1.30424,6.99500,0.50025,-2.44252,0
2.73272,1.29279,7.00565,0.43323,-2.44351,0
2.77247,1.28133,7.01630,0.35373,-2.44450,0
2.82428,1.26986,7.02694,0.25012,-2.44549,0
2.94934,1.25839,7.03757,0.00000,-2.44648,0
